Distance_(cm),Gray_Value
0.00000,28.667
0.01953,31.495
0.03905,30.345
0.05858,26.371
0.07811,25.888
0.09763,25.222
0.11716,25.642
0.13668,27.025
0.15621,28.206
0.17574,28.673
0.19526,27.161
0.21479,25.709
0.23432,25.034
0.25384,30.746
0.27337,34.017
0.29289,30.979
0.31242,25.056
0.33195,23.787
0.35147,25.588
0.37100,26.719
0.39053,25.821
0.41005,25.539
0.42958,25.468
0.44910,26.588
0.46863,28.824
0.48816,29.367
0.50768,27.255
0.52721,25.338
0.54674,25.141
0.56626,28.770
0.58579,31.116
0.60531,29.178
0.62484,27.331
0.64437,28.707
0.66389,31.269
0.68342,32.395
0.70295,28.450
0.72247,27.984
0.74200,27.929
0.76152,27.875
0.78105,29.008
0.80058,29.307
0.82010,30.219
0.83963,31.216
0.85916,31.513
0.87868,29.674
0.89821,28.014
0.91773,27.390
0.93726,27.333
0.95679,27.333
0.97631,27.096
0.99584,26.733
1.01537,27.405
1.03489,27.541
1.05442,28.301
1.07394,30.034
1.09347,31.328
1.11300,31.562
1.13252,30.948
1.15205,30.979
1.17158,30.851
1.19110,31.226
1.21063,32.164
1.23015,31.864
1.24968,30.593
1.26921,30.333
1.28873,31.484
1.30826,33.317
1.32779,27.413
1.34731,26.000
1.36684,26.150
1.38637,27.744
1.40589,28.941
1.42542,30.646
1.44494,31.759
1.46447,31.982
1.48400,29.923
1.50352,28.872
1.52305,29.537
1.54258,31.504
1.56210,34.440
1.58163,36.240
1.60115,35.331
1.62068,33.483
1.64021,33.104
1.65973,33.662
1.67926,34.812
1.69879,37.219
1.71831,41.432
1.73784,44.983
1.75736,43.283
1.77689,38.624
1.79642,35.096
1.81594,32.959
1.83547,32.331
1.85500,31.613
1.87452,29.815
1.89405,26.869
1.91357,26.483
1.93310,28.354
1.95263,32.638
1.97215,36.899
1.99168,39.522
2.01121,40.054
2.03073,40.477
2.05026,42.332
2.06978,42.947
2.08931,42.275
2.10884,37.040
2.12836,31.283
2.14789,30.370
2.16742,36.594
2.18694,41.449
2.20647,42.726
2.22599,50.372
2.24552,63.270
2.26505,70.090
2.28457,70.270
2.30410,66.069
2.32363,61.039
2.34315,60.755
2.36268,66.078
2.38220,70.127
2.40173,69.421
2.42126,66.460
2.44078,65.475
2.46031,67.464
2.47984,68.370
2.49936,64.275
2.51889,57.570
2.53841,55.765
2.55794,58.768
2.57747,58.607
2.59699,53.663
2.61652,47.763
2.63605,45.210
2.65557,46.036
2.67510,48.701
2.69463,52.169
2.71415,55.856
2.73368,54.479
2.75320,55.311
2.77273,63.716
2.79226,70.799
2.81178,68.987
2.83131,65.829
2.85084,66.302
2.87036,66.148
2.88989,76.213
2.90941,95.975
2.92894,116.011
2.94847,124.725
2.96799,121.745
2.98752,116.546
3.00705,112.018
3.02657,106.657
3.04610,108.724
3.06562,106.985
3.08515,100.218
3.10468,99.622
3.12420,109.604
3.14373,127.604
3.16326,138.727
3.18278,138.960
3.20231,146.805
3.22183,150.903
3.24136,140.446
3.26089,119.383
3.28041,117.560
3.29994,128.991
3.31947,116.478
3.33899,101.719
3.35852,97.803
3.37804,96.568
3.39757,93.567
3.41710,94.391
3.43662,111.249
3.45615,131.874
3.47568,153.907
3.49520,191.896
3.51473,228.312
3.53425,245.944
3.55378,250.595
3.57331,252.027
3.59283,253.828
3.61236,253.217
3.63189,250.898
3.65141,245.790
3.67094,232.757
3.69046,204.575
3.70999,170.753
3.72952,147.813
3.74904,131.455
3.76857,117.525
3.78810,107.865
3.80762,106.274
3.82715,104.050
3.84667,100.485
3.86620,97.975
3.88573,95.029
3.90525,101.524
3.92478,119.001
3.94431,143.603
3.96383,154.897
3.98336,154.740
4.00288,152.983
4.02241,145.508
4.04194,141.865
4.06146,144.601
4.08099,144.157
4.10052,132.056
4.12004,111.477
4.13957,100.257
4.15910,108.175
4.17862,109.554
4.19815,90.644
4.21767,73.212
4.23720,72.646
4.25673,81.872
4.27625,97.156
4.29578,103.938
4.31531,98.631
4.33483,101.760
4.35436,93.206
4.37388,74.228
4.39341,65.737
4.41294,55.381
4.43246,48.484
4.45199,48.614
4.47152,47.500
4.49104,48.347
4.51057,51.211
4.53009,53.131
4.54962,52.393
4.56915,51.311
4.58867,52.139
4.60820,54.268
4.62773,55.593
4.64725,53.106
4.66678,48.714
4.68630,61.023
4.70583,80.751
4.72536,78.787
4.74488,63.378
4.76441,58.335
4.78394,60.967
4.80346,59.413
4.82299,52.744
4.84251,42.249
4.86204,36.355
4.88157,41.345
4.90109,55.481
4.92062,64.943
4.94015,62.935
4.95967,59.245
4.97920,55.222
4.99872,49.606
5.01825,43.559
5.03778,38.931
5.05730,37.727
5.07683,37.718
5.09636,37.116
5.11588,36.195
5.13541,34.492
5.15493,34.127
5.17446,34.847
5.19399,35.724
5.21351,35.737
5.23304,35.072
5.25257,32.844
5.27209,33.387
5.29162,33.104
5.31114,32.950
5.33067,34.583
5.35020,36.559
5.36972,35.475
5.38925,33.205
5.40878,30.611
5.42830,30.970
5.44783,36.251
5.46736,44.778
5.48688,48.985
5.50641,45.614
5.52593,39.634
5.54546,36.735
5.56499,36.650
5.58451,37.430
5.60404,38.640
5.62357,39.100
5.64309,39.284
5.66262,39.414
5.68214,39.229
5.70167,38.583
5.72120,35.460
5.74072,32.745
5.76025,30.109
5.77978,28.700
5.79930,28.633
5.81883,28.100
5.83835,26.854
5.85788,25.675
5.87741,24.556
5.89693,26.838
5.91646,29.109
5.93599,30.392
5.95551,30.092
5.97504,29.514
5.99456,28.603
6.01409,28.583
6.03362,28.130
6.05314,25.023
6.07267,23.799
6.09220,26.930
6.11172,30.293
6.13125,30.285
6.15077,29.168
6.17030,28.113
6.18983,28.293
6.20935,29.897
6.22888,31.100
6.24841,30.128
6.26793,27.651
6.28746,26.333
6.30698,26.333
6.32651,26.291
6.34604,26.167
6.36556,26.446
6.38509,25.731
6.40462,25.000
6.42414,25.096
6.44367,26.182
6.46319,28.242
6.48272,30.523
6.50225,32.947
6.52177,32.760
6.54130,31.492
6.56083,29.582
6.58035,28.637
6.59988,28.247
6.61940,28.193
6.63893,27.868
6.65846,24.488
6.67798,25.431
6.69751,26.288
6.71704,25.937
6.73656,24.940
6.75609,24.008
6.77562,24.090
6.79514,24.087
6.81467,24.951
6.83419,24.040
6.85372,24.831
6.87325,26.717
6.89277,28.573
6.91230,29.638
6.93183,27.621
6.95135,26.569
6.97088,25.280
6.99040,25.497
7.00993,26.591
7.02946,28.085
7.04898,28.021
7.06851,27.153
7.08804,24.985
7.10756,23.511
7.12709,26.000
7.14661,26.002
7.16614,27.000
