Distance_(cm),Gray_Value
0.0000,73.000
0.0159,64.538
0.0317,66.656
0.0476,69.751
0.0635,73.978
0.0794,75.579
0.0952,74.092
0.1111,71.077
0.1270,67.974
0.1428,68.190
0.1587,63.846
0.1746,61.381
0.1905,68.004
0.2063,78.571
0.2222,83.051
0.2381,79.388
0.2539,72.725
0.2698,59.531
0.2857,61.722
0.3015,67.612
0.3174,75.158
0.3333,81.641
0.3492,80.242
0.3650,73.703
0.3809,65.436
0.3968,61.700
0.4126,62.762
0.4285,65.883
0.4444,67.231
0.4603,67.769
0.4761,64.040
0.4920,59.513
0.5079,55.839
0.5237,59.916
0.5396,62.912
0.5555,68.308
0.5714,69.524
0.5872,68.901
0.6031,67.564
0.6190,67.524
0.6348,67.597
0.6507,63.073
0.6666,58.590
0.6825,61.571
0.6983,72.509
0.7142,79.667
0.7301,80.766
0.7459,84.919
0.7618,90.220
0.7777,75.667
0.7936,74.637
0.8094,77.103
0.8253,84.476
0.8412,93.055
0.8570,96.623
0.8729,93.696
0.8888,88.692
0.9046,77.509
0.9205,60.033
0.9364,70.985
0.9523,100.480
0.9681,111.864
0.9840,105.868
0.9999,94.795
1.0157,82.099
1.0316,63.476
1.0475,64.557
1.0634,75.689
1.0792,86.443
1.0951,94.187
1.1110,105.359
1.1268,102.897
1.1427,85.018
1.1586,72.857
1.1745,62.648
1.1903,70.733
1.2062,88.187
1.2221,93.385
1.2379,94.524
1.2538,90.817
1.2697,81.374
1.2856,64.707
1.3014,60.209
1.3173,70.125
1.3332,80.385
1.3490,84.011
1.3649,86.582
1.3808,86.359
1.3966,73.143
1.4125,63.839
1.4284,61.000
1.4443,60.000
1.4601,64.396
1.4760,77.952
1.4919,86.121
1.5077,84.114
1.5236,74.612
1.5395,63.440
1.5554,67.846
1.5712,74.648
1.5871,82.722
1.6030,94.857
1.6188,102.465
1.6347,95.286
1.6506,82.524
1.6665,69.154
1.6823,63.341
1.6982,75.136
1.7141,97.234
1.7299,113.300
1.7458,121.744
1.7617,113.619
1.7776,91.641
1.7934,85.179
1.8093,80.696
1.8252,103.392
1.8410,120.117
1.8569,116.429
1.8728,117.626
1.8887,108.179
1.9045,72.872
1.9204,66.227
1.9363,68.952
1.9521,89.231
1.9680,106.670
1.9839,110.619
1.9997,110.410
2.0156,104.128
2.0315,89.432
2.0474,62.839
2.0632,76.857
2.0791,97.901
2.0950,116.513
2.1108,122.897
2.1267,111.656
2.1426,89.502
2.1585,70.374
2.1743,69.099
2.1902,67.084
2.2061,70.989
2.2219,79.872
2.2378,82.579
2.2537,75.733
2.2696,68.762
2.2854,66.718
2.3013,59.535
2.3172,58.297
2.3330,78.385
2.3489,92.813
2.3648,88.678
2.3807,91.923
2.3965,84.344
2.4124,56.392
2.4283,63.538
2.4441,99.667
2.4600,130.125
2.4759,131.810
2.4917,120.022
2.5076,104.762
2.5235,80.169
2.5394,51.996
2.5552,72.821
2.5711,108.484
2.5870,131.799
2.6028,133.037
2.6187,138.476
2.6346,138.370
2.6505,113.363
2.6663,82.333
2.6822,92.143
2.6981,123.762
2.7139,157.692
2.7298,158.538
2.7457,156.842
2.7616,136.623
2.7774,90.487
2.7933,78.040
2.8092,80.571
2.8250,115.363
2.8409,163.560
2.8568,172.971
2.8727,156.348
2.8885,118.333
2.9044,74.751
2.9203,75.905
2.9361,118.407
2.9520,143.117
2.9679,146.538
2.9838,141.366
2.9996,146.385
3.0155,128.084
3.0314,87.315
3.0472,62.015
3.0631,88.905
3.0790,95.630
3.0948,99.095
3.1107,93.077
3.1266,81.451
3.1425,72.469
3.1583,72.440
3.1742,75.696
3.1901,69.081
3.2059,81.070
3.2218,78.872
3.2377,86.066
3.2536,97.425
3.2694,75.828
3.2853,61.938
3.3012,84.714
3.3170,134.267
3.3329,152.897
3.3488,162.773
3.3647,146.260
3.3805,131.985
3.3964,93.114
3.4123,60.469
3.4281,89.956
3.4440,146.179
3.4599,167.026
3.4758,169.106
3.4916,167.128
3.5075,154.571
3.5234,99.919
3.5392,86.630
3.5551,146.615
3.5710,176.447
3.5868,184.256
3.6027,179.993
3.6186,168.652
3.6345,142.542
3.6503,116.678
3.6662,133.436
3.6821,173.678
3.6979,182.425
3.7138,187.095
3.7297,187.842
3.7456,180.377
3.7614,159.531
3.7773,101.103
3.7932,123.817
3.8090,158.813
3.8249,173.740
3.8408,177.015
3.8567,176.183
3.8725,165.557
3.8884,127.795
3.9043,86.099
3.9201,100.952
3.9360,153.689
3.9519,159.872
3.9678,157.989
3.9836,163.000
3.9995,144.385
4.0154,92.212
4.0312,60.784
4.0471,78.897
4.0630,119.062
4.0789,129.150
4.0947,138.249
4.1106,131.667
4.1265,97.905
4.1423,71.473
4.1582,84.359
4.1741,132.498
4.1899,170.927
4.2058,175.491
4.2217,181.538
4.2376,176.608
4.2534,163.234
4.2693,175.099
4.2852,204.337
4.3010,215.505
4.3169,211.747
4.3328,224.667
4.3487,225.912
4.3645,225.462
4.3804,226.516
4.3963,230.355
4.4121,235.564
4.4280,240.586
4.4439,243.051
4.4598,244.788
4.4756,245.747
4.4915,245.681
4.5074,245.227
4.5232,246.487
4.5391,247.524
4.5550,249.590
4.5709,250.238
4.5867,250.223
4.6026,249.634
4.6185,249.758
4.6343,250.051
4.6502,251.055
4.6661,252.436
4.6820,253.861
4.6978,253.828
4.7137,253.315
4.7296,252.967
4.7454,253.333
4.7613,253.198
4.7772,253.000
4.7930,253.000
4.8089,253.106
4.8248,252.773
4.8407,253.161
4.8565,252.883
4.8724,253.670
4.8883,254.154
4.9041,254.139
4.9200,253.582
4.9359,252.663
4.9518,251.762
4.9676,251.495
4.9835,251.465
4.9994,251.436
5.0152,251.407
5.0311,251.377
5.0470,251.348
5.0629,251.315
5.0787,252.267
5.0946,253.744
5.1105,254.256
5.1263,254.205
5.1422,254.143
5.1581,253.952
5.1740,252.897
5.1898,251.857
5.2057,250.886
5.2216,252.795
5.2374,251.410
5.2533,250.026
5.2692,250.110
5.2850,251.377
5.3009,251.092
5.3168,249.912
5.3327,247.718
5.3485,243.791
5.3644,241.810
5.3803,241.681
5.3961,241.971
5.4120,242.535
5.4279,241.223
5.4438,237.462
5.4596,234.209
5.4755,231.451
5.4914,227.242
5.5072,224.451
5.5231,223.443
5.5390,223.304
5.5549,220.744
5.5707,216.238
5.5866,206.147
5.6025,186.414
5.6183,164.234
5.6342,168.817
5.6501,184.432
5.6660,187.718
5.6818,183.835
5.6977,178.886
5.7136,172.011
5.7294,112.275
5.7453,81.143
5.7612,117.806
5.7771,158.000
5.7929,146.586
5.8088,155.392
5.8247,151.516
5.8405,94.828
5.8564,72.297
5.8723,99.190
5.8881,139.051
5.9040,170.952
5.9199,175.670
5.9358,176.821
5.9516,174.835
5.9675,141.520
5.9834,108.524
5.9992,147.949
6.0151,173.117
6.0310,174.692
6.0469,177.132
6.0627,178.509
6.0786,157.106
6.0945,117.773
6.1103,145.795
6.1262,168.169
6.1421,179.136
6.1580,177.363
6.1738,179.187
6.1897,178.571
6.2056,152.308
6.2214,110.641
6.2373,127.747
6.2532,167.930
6.2691,180.154
6.2849,174.608
6.3008,173.333
6.3167,164.352
6.3325,130.308
6.3484,107.850
6.3643,155.864
6.3801,175.326
6.3960,180.667
6.4119,179.205
6.4278,172.201
6.4436,136.795
6.4595,107.249
6.4754,107.777
6.4912,141.088
6.5071,169.451
6.5230,186.271
6.5389,179.172
6.5547,147.872
6.5706,96.344
6.5865,64.982
6.6023,71.905
6.6182,84.396
6.6341,93.758
6.6500,85.366
6.6658,59.692
6.6817,42.297
6.6976,40.535
6.7134,40.619
6.7293,36.656
6.7452,58.498
6.7611,82.791
6.7769,109.538
6.7928,108.505
6.8087,78.476
6.8245,58.996
6.8404,84.736
6.8563,121.297
6.8722,144.952
6.8880,149.487
6.9039,149.125
6.9198,152.165
6.9356,105.967
6.9515,60.696
6.9674,108.795
6.9832,169.853
6.9991,183.128
7.0150,186.190
7.0309,171.703
7.0467,140.707
7.0626,104.099
7.0785,71.110
7.0943,95.040
7.1102,159.615
7.1261,187.795
7.1420,183.670
7.1578,158.527
7.1737,106.264
7.1896,77.593
7.2054,94.037
7.2213,138.667
7.2372,171.432
7.2531,178.769
7.2689,181.934
7.2848,165.440
7.3007,101.407
7.3165,47.769
7.3324,70.564
7.3483,114.586
7.3642,118.399
7.3800,142.256
7.3959,137.777
7.4118,111.608
7.4276,73.048
7.4435,54.897
7.4594,68.220
7.4752,93.088
7.4911,108.352
7.5070,112.143
7.5229,105.707
7.5387,84.659
7.5546,54.590
7.5705,39.473
7.5863,49.363
7.6022,73.128
7.6181,90.015
7.6340,92.238
7.6498,89.788
7.6657,78.923
7.6816,68.051
7.6974,76.857
7.7133,104.088
7.7292,127.689
7.7451,135.711
7.7609,124.579
7.7768,104.282
7.7927,79.795
7.8085,74.183
7.8244,99.183
7.8403,135.238
7.8562,151.612
7.8720,149.271
7.8879,156.026
7.9038,135.934
7.9196,93.095
7.9355,86.366
7.9514,134.564
7.9673,172.359
7.9831,174.319
7.9990,172.026
8.0149,138.161
8.0307,78.604
8.0466,63.905
8.0625,114.447
8.0783,159.110
8.0942,167.300
8.1101,163.590
8.1260,162.857
8.1418,119.322
8.1577,85.817
8.1736,81.513
8.1894,113.132
8.2053,142.062
8.2212,150.949
8.2371,139.985
8.2529,120.286
8.2688,93.026
8.2847,75.784
8.3005,82.480
8.3164,112.359
8.3323,135.641
8.3482,142.520
8.3640,128.974
8.3799,106.934
8.3958,76.414
8.4116,64.520
8.4275,69.806
8.4434,86.026
8.4593,95.762
8.4751,105.645
8.4910,110.344
8.5069,102.597
8.5227,72.293
8.5386,63.905
8.5545,75.718
8.5703,97.535
8.5862,111.322
8.6021,118.297
8.6180,114.890
8.6338,99.421
8.6497,64.637
8.6656,63.667
8.6814,75.271
8.6973,103.978
8.7132,133.553
8.7291,138.700
8.7449,116.168
8.7608,89.821
8.7767,71.256
8.7925,76.198
8.8084,87.670
8.8243,103.934
8.8402,124.502
8.8560,132.044
8.8719,117.667
8.8878,98.231
8.9036,90.615
8.9195,98.612
8.9354,108.487
8.9513,110.110
8.9671,114.821
8.9830,125.696
8.9989,108.179
9.0147,67.751
9.0306,48.894
9.0465,63.707
9.0624,85.084
9.0782,104.286
9.0941,108.242
9.1100,92.692
9.1258,65.011
9.1417,45.304
9.1576,41.817
9.1734,53.418
9.1893,74.553
9.2052,92.114
9.2211,92.051
9.2369,73.128
9.2528,51.615
9.2687,39.132
9.2845,38.190
9.3004,58.114
9.3163,73.447
9.3322,78.974
9.3480,80.154
9.3639,63.890
9.3798,49.663
9.3956,48.491
9.4115,72.132
9.4274,77.495
9.4433,85.179
9.4591,89.641
9.4750,83.542
9.4909,66.381
9.5067,53.993
9.5226,54.198
9.5385,69.718
9.5544,89.641
9.5702,100.652
9.5861,99.996
9.6020,86.927
9.6178,55.209
9.6337,38.015
9.6496,50.619
9.6654,64.205
9.6813,71.740
9.6972,97.429
9.7131,116.711
9.7289,97.685
9.7448,57.352
9.7607,43.663
9.7765,56.205
9.7924,78.674
9.8083,89.018
9.8242,97.806
9.8400,93.150
9.8559,76.718
9.8718,57.795
9.8876,45.744
9.9035,42.524
9.9194,49.751
9.9353,55.469
9.9511,63.608
9.9670,66.341
9.9829,57.374
9.9987,42.410
10.0146,36.051
10.0305,39.084
10.0464,46.769
10.0622,50.143
10.0781,52.516
10.0940,50.802
10.1098,46.667
